Wavelength (nm),Intensity (a.u.),Z Axis,
,CG_E0,CG_E0,CG_E5,CG_10,CG_20,CG_E21\,CG_E30,CG_E31,CG1w,CG1wkb
,1,2,3,4,5,6,7,8,9,10
510,1000,1000,1000,1000,1000,1000,1000,1000,1000,1000
511.059997558594,1000,1000,1000,1000,1000,1000,1000,1000,1000,1000
511.959991455078,887.4130859375,880.900085449219,976.64990234375,862.212646484375,1000,1000,884.752136230469,874.665588378906,448.283874511719,442.086517333984
513.030029296875,376.049224853516,372.965240478516,400.753845214844,364.770446777344,1000,1000,355.357971191406,354.529113769531,149.96110534668,149.016738891602
513.929992675781,248.70849609375,251.182250976562,251.945190429687,237.587249755859,1000,1000,226.084777832031,227.231323242187,53.4989051818848,51.470157623291
515,233.050033569336,232.200302124023,227.015106201172,218.349594116211,956.284790039063,955.701232910156,206.209259033203,209.856018066406,26.8166694641113,26.72021484375
516.059997558594,240.334213256836,241.815536499023,234.514190673828,229.565246582031,853.89892578125,852.756896972656,215.666259765625,211.922393798828,22.3312225341797,20.6633815765381
516.960021972656,256.819305419922,257.492279052734,248.39762878418,240.591415405273,840.425415039063,831.057800292969,228.900009155273,228.40983581543,19.8695411682129,20.2697143554687
518.030029296875,274.079864501953,271.53662109375,261.565673828125,252.717132568359,840.746765136719,839.802429199219,243.058013916016,239.241653442383,18.8082466125488,19.3464984893799
518.929992675781,287.109558105469,285.8876953125,277.646026611328,270.350128173828,851.596740722656,847.173034667969,254.841232299805,251.326263427734,18.8503513336182,18.8122806549072
520,303.380126953125,304.334625244141,289.693267822266,283.271148681641,855.138061523437,856.718688964844,268.171447753906,266.341949462891,17.6971378326416,17.4614582061768
521.039978027344,314.217254638672,317.404632568359,305.457244873047,298.920501708984,858.85498046875,864.797302246094,280.936431884766,277.189636230469,16.7738151550293,16.084451675415
521.940002441406,327.409088134766,329.12255859375,312.477416992188,309.309112548828,861.58251953125,866.243896484375,291.812927246094,289.676696777344,16.1341743469238,16.4596786499023
522.97998046875,344.832580566406,340.41943359375,327.651306152344,320.563049316406,869.147033691406,877.661071777344,300.841461181641,298.012390136719,16.6633834838867,16.9378852844238
524.02001953125,353.074890136719,351.789489746094,339.721923828125,331.3349609375,883.666687011719,884.696655273437,308.294586181641,313.386810302734,15.9813709259033,16.6513786315918
525.070007324219,366.790191650391,365.625091552734,352.279846191406,344.828918457031,902.106994628906,900.819946289063,318.564025878906,319.061218261719,16.2940120697021,17.1580619812012
525.969970703125,374.483673095703,372.024597167969,361.456268310547,352.419250488281,922.820678710937,928.462036132813,328.407958984375,328.884521484375,17.4119987487793,16.9266471862793
527.010009765625,381.212280273438,379.648498535156,367.041656494141,362.140502929687,939.514343261719,942.095886230469,334.771789550781,334.090637207031,17.377986907959,18.0072135925293
528.049987792969,387.251983642578,381.422760009766,372.986572265625,365.054565429687,960.928161621094,960.986267089844,340.552276611328,336.042297363281,16.2015838623047,17.2903003692627
528.950012207031,390.166870117188,388.858428955078,375.217193603516,361.926422119141,961.996887207031,964.658386230469,344.878295898438,338.75830078125,16.7566051483154,16.7795028686523
530,389.578582763672,384.280975341797,377.031982421875,364.303527832031,952.426330566406,953.432312011719,340.381591796875,342.775085449219,16.0594215393066,16.0178546905518
531.02001953125,389.278228759766,384.100189208984,372.373596191406,366.082702636719,928.298583984375,938.303466796875,343.116943359375,337.610229492188,14.9411201477051,15.4329442977905
532.049987792969,388.319305419922,383.813507080078,369.518920898438,365.590026855469,910.392272949219,909.191528320312,338.504577636719,340.290222167969,13.6758422851562,15.2544889450073
532.940002441406,382.174377441406,379.902679443359,368.313171386719,360.211730957031,890.963439941406,894.2041015625,335.715728759766,334.308563232422,14.1635971069336,13.5594491958618
533.969970703125,376.664306640625,378.414855957031,367.939422607422,357.131927490234,872.04541015625,874.365173339844,327.478820800781,333.530090332031,14.3731279373169,13.9797658920288
535,374.005157470703,369.931854248047,354.756317138672,350.134643554687,856.824584960937,856.648193359375,328.546752929687,322.328979492188,13.1465473175049,13.2779169082642
536.02001953125,366.398345947266,364.708557128906,352.088287353516,345.058990478516,834.357055664062,830.889099121094,321.843475341797,321.514007568359,12.5545816421509,12.8012628555298
537.049987792969,359.770812988281,356.548400878906,343.887451171875,335.341766357422,812.186889648438,812.215148925781,315.499664306641,316.618896484375,12.1443071365356,11.8142061233521
537.940002441406,353.128936767578,354.243682861328,337.276275634766,330.114532470703,786.69921875,788.423889160156,309.715057373047,308.007293701172,11.7238159179688,11.6674957275391
538.969970703125,344.847290039063,342.6240234375,329.379180908203,325.746704101562,778.043640136719,770.215454101562,302.494720458984,300.519073486328,11.7030382156372,11.4872980117798
540,335.737243652344,332.025238037109,320.116180419922,316.464385986328,759.889587402344,755.583374023437,295.141967773438,292.4228515625,11.0023326873779,11.5485610961914
541.039978027344,328.0244140625,325.330322265625,310.331665039063,307.740875244141,744.074340820312,741.694519042969,287.453002929687,284.711761474609,10.9934511184692,11.3800029754639
541.940002441406,319.855499267578,318.610107421875,305.361236572266,303.93798828125,718.408935546875,718.170959472656,282.254425048828,274.972686767578,10.7224807739258,10.4922046661377
542.97998046875,311.142822265625,309.619445800781,297.462158203125,290.612915039063,693.902770996094,698.532592773437,272.192474365234,271.881622314453,10.2086696624756,10.7021703720093
544.02001953125,299.816192626953,299.047058105469,287.240447998047,282.866821289062,676.609741210937,674.981872558594,262.64697265625,264.651702880859,9.73237133026123,9.43707942962647
545.070007324219,292.100311279297,288.068634033203,279.652099609375,272.245391845703,645.625183105469,650.206909179688,255.659286499023,255.892990112305,9.06907081604004,8.71999263763428
545.969970703125,281.260437011719,282.691040039062,270.077423095703,265.942687988281,626.681579589844,622.51318359375,247.386138916016,245.70442199707,8.34858131408691,8.78334426879883
547.010009765625,275.371429443359,274.900421142578,260.588714599609,254.150543212891,602.160766601562,601.617919921875,240.957504272461,238.598648071289,8.70145416259766,8.51724624633789
548.049987792969,265.298461914062,263.737457275391,251.952911376953,248.151031494141,579.583068847656,581.924011230469,234.817276000977,232.155197143555,7.89604234695435,7.95201587677002
548.950012207031,256.124206542969,255.894271850586,245.173614501953,240.737030029297,557.980529785156,559.558654785156,224.544204711914,223.176177978516,7.28094387054443,7.66657495498657
550,249.971252441406,245.617309570313,236.701446533203,231.514068603516,539.6044921875,532.238525390625,218.941680908203,215.671981811523,7.63171195983887,7.24726581573486
551.039978027344,238.237030029297,236.795822143555,227.298324584961,224.537475585938,515.985778808594,520.153015136719,207.572082519531,206.129745483398,6.86800289154053,7.20115327835083
551.940002441406,229.347045898438,229.710067749023,219.622512817383,216.772552490234,494.544647216797,494.98486328125,204.294143676758,201.003143310547,6.61191749572754,7.06618070602417
552.97998046875,224.909118652344,222.15641784668,210.744430541992,208.417098999023,478.754730224609,483.730621337891,195.506378173828,194.990203857422,6.22380876541138,6.42315912246704
554.02001953125,217.624252319336,212.046478271484,205.857116699219,200.450927734375,463.131713867188,467.407592773438,187.527130126953,187.766998291016,6.56351852416992,6.58307361602783
555.070007324219,206.144500732422,206.853118896484,195.60221862793,194.490158081055,445.243896484375,443.535400390625,182.034332275391,182.805358886719,5.70747661590576,6.12712907791138
555.969970703125,200.860305786133,200.388153076172,191.414749145508,186.963134765625,430.938415527344,427.106628417969,172.726898193359,174.864318847656,5.85256862640381,6.08762454986572
557.010009765625,192.771133422852,193.420013427734,185.99674987793,177.989852905273,411.650573730469,409.438903808594,167.154541015625,169.886138916016,5.70960903167725,5.36461305618286
558.049987792969,187.286544799805,186.609222412109,177.719100952148,176.764389038086,398.185638427734,400.883361816406,162.684921264648,162.80256652832,5.31676149368286,5.80801725387573
558.950012207031,179.280242919922,178.521728515625,172.971435546875,168.70930480957,386.41259765625,384.786682128906,155.963897705078,159.465194702148,4.8782229423523,5.49022579193115
560,170.746429443359,174.650482177734,166.385147094727,163.483184814453,371.797973632812,377.439880371094,150.849334716797,152.341949462891,5.40087699890137,5.08302927017212
561.02001953125,165.919891357422,167.712249755859,160.786972045898,157.467849731445,359.975555419922,361.847137451172,145.811950683594,149.03645324707,4.75254249572754,4.83999395370483
562.049987792969,161.061126708984,162.341903686523,155.762588500977,151.272476196289,347.937896728516,351.276214599609,140.090148925781,141.380081176758,4.80841493606567,4.43389558792114
562.940002441406,156.246063232422,155.129180908203,152.632843017578,147.178665161133,342.322479248047,339.394195556641,139.812927246094,138.745529174805,4.56494092941284,4.96981430053711
563.969970703125,152.645126342773,153.337310791016,146.085327148438,143.68896484375,328.216461181641,328.181213378906,133.30192565918,132.77995300293,4.59952449798584,4.46831750869751
565,145.366744995117,147.565032958984,141.611099243164,138.433731079102,318.319030761719,318.630462646484,128.004577636719,129.126831054688,4.28891372680664,4.49551153182983
566.02001953125,144.048538208008,143.290298461914,135.936630249023,137.188461303711,309.189727783203,313.117553710937,126.263023376465,125.216873168945,4.28569412231445,3.80596899986267
567.049987792969,136.55891418457,139.115814208984,134.368148803711,130.60693359375,300.9033203125,300.2724609375,121.613082885742,122.002838134766,4.36428165435791,4.13402986526489
567.940002441406,134.333450317383,136.677978515625,131.348159790039,127.527626037598,293.231292724609,293.988616943359,118.554611206055,120.59268951416,3.98738265037537,4.39376783370972
568.969970703125,128.983306884766,131.593185424805,124.52027130127,123.233329772949,287.013610839844,285.790618896484,114.862564086914,114.909019470215,3.84205365180969,3.98224115371704
570,123.757743835449,125.443977355957,123.244590759277,118.616325378418,276.707061767578,277.94580078125,110.656791687012,112.098579406738,3.97644281387329,3.68273711204529
571.02001953125,122.779747009277,122.655029296875,119.307159423828,117.441192626953,270.461944580078,269.687866210938,109.438484191895,107.09513092041,3.83837604522705,3.9269552230835
572.049987792969,118.61824798584,118.414360046387,114.199798583984,111.520446777344,263.346618652344,262.440368652344,107.196731567383,103.929832458496,4.07789421081543,3.60123610496521
572.940002441406,114.850082397461,114.232223510742,109.93677520752,109.797103881836,256.678558349609,254.733825683594,102.277671813965,102.202072143555,3.51620125770569,3.39563369750977
573.969970703125,114.252807617187,113.978569030762,108.025489807129,106.06909942627,251.058578491211,246.356079101562,100.588577270508,98.591064453125,3.20870184898376,3.69189548492432
575,108.347305297852,108.130081176758,106.379638671875,103.048309326172,239.941314697266,237.984649658203,95.3836517333984,94.7032318115234,3.67518591880798,3.43769764900207
576.02001953125,105.022468566895,104.718040466309,101.575103759766,98.679443359375,232.48616027832,228.074737548828,92.8372421264648,92.3600387573242,3.55476665496826,3.45182228088379
577.049987792969,101.939903259277,100.955299377441,98.4267959594727,97.4170227050781,223.156326293945,222.880920410156,89.4480819702148,88.0769424438477,3.31538581848145,3.27891755104065
577.940002441406,98.2733688354492,99.8969421386719,96.0206680297852,92.2144622802734,214.49055480957,215.658004760742,87.791862487793,87.643684387207,3.0225145816803,3.13656258583069
578.969970703125,97.2451553344727,94.4127731323242,90.3157730102539,89.1573791503906,209.291000366211,208.461868286133,84.0222320556641,83.7851791381836,3.06727457046509,3.01598644256592
580,91.8547897338867,92.8133926391602,87.768669128418,85.7233657836914,201.301315307617,198.783630371094,79.386344909668,80.9724578857422,2.61306667327881,2.77648591995239
581.02001953125,88.3509368896484,87.9699172973633,84.8041305541992,83.8495941162109,193.597732543945,192.585113525391,78.4117050170898,77.286018371582,2.923335313797,2.78850531578064
582.049987792969,85.1794891357422,85.0654678344727,80.6643142700195,81.897705078125,184.379135131836,185.679916381836,74.1515045166016,75.817138671875,2.90908408164978,2.72556638717651
582.940002441406,83.0453872680664,81.5269317626953,79.3291473388672,77.5917434692383,179.306579589844,180.795700073242,72.451286315918,72.7041244506836,2.45961236953735,2.61112356185913
583.969970703125,78.3626327514648,79.0756378173828,75.8237915039063,73.0861511230469,173.317977905273,171.755737304687,69.1607437133789,69.4975738525391,2.33141565322876,2.48873233795166
585,76.4803695678711,75.7845230102539,72.9597320556641,70.7551422119141,168.626541137695,168.407196044922,66.7350082397461,67.7456359863281,2.22156500816345,2.29558110237122
586.02001953125,73.8754196166992,73.7260589599609,70.2347717285156,70.2484664916992,159.616287231445,161.882522583008,64.8182067871094,64.9701995849609,2.46562433242798,2.28648924827576
587.049987792969,69.3783645629883,70.887451171875,70.0535659790039,64.2826156616211,158.283920288086,156.429733276367,61.5232276916504,61.778377532959,2.06061434745789,2.2366828918457
587.940002441406,67.3997497558594,68.3136444091797,64.6908187866211,65.0676574707031,153.423187255859,152.237869262695,60.6616249084473,59.5754699707031,2.51998925209045,2.48502826690674
588.969970703125,65.5669097900391,65.22021484375,62.2061958312988,63.0089492797852,146.797805786133,144.666961669922,59.3357429504394,57.4139518737793,2.18601202964783,2.35810375213623
590,62.6447334289551,63.7306480407715,61.2213706970215,59.211254119873,141.498825073242,141.213470458984,56.286190032959,56.0272102355957,1.85696423053741,2.13384556770325
591.02001953125,61.7393112182617,60.4974021911621,58.6494331359863,55.8043365478516,135.577117919922,137.018478393555,53.2365226745605,52.0532684326172,2.13999104499817,2.11343336105347
592.049987792969,59.4501190185547,57.7743072509766,55.0014686584473,55.2036094665527,130.648941040039,130.818267822266,52.174560546875,51.2212715148926,2.199547290802,2.08246374130249
592.940002441406,56.1453742980957,56.0795440673828,55.3337821960449,53.0856895446777,126.982940673828,129.461990356445,50.5690002441406,50.6241035461426,1.90011489391327,2.00904178619385
593.969970703125,54.3788757324219,53.5177993774414,53.4005737304687,51.1380844116211,123.224388122559,124.758781433105,48.2867660522461,47.8029518127441,2.00754356384277,1.94421648979187
595,52.6356201171875,53.2168083190918,49.7026786804199,49.1542510986328,118.741271972656,120.380836486816,46.8862762451172,46.4702491760254,2.00736093521118,2.11133027076721
596.02001953125,50.2615394592285,50.719425201416,49.2149810791016,47.581958770752,116.20832824707,116.676261901855,46.1347274780273,44.3972434997559,1.73453187942505,1.69155240058899
597.049987792969,48.955192565918,48.226676940918,46.4602203369141,46.017520904541,112.005271911621,112.516761779785,42.8355827331543,43.2636833190918,1.72676050662994,1.7753803730011
597.940002441406,46.7937278747559,46.2838020324707,45.3361206054687,43.5525207519531,107.620223999023,109.243988037109,41.8878211975098,42.3225784301758,1.67256021499634,1.79191720485687
598.969970703125,44.8691177368164,46.0519790649414,43.1411247253418,42.0108222961426,103.71565246582,104.440856933594,39.2884788513184,40.1311950683594,1.71735274791718,1.60445833206177
600,44.1984558105469,42.4921875,41.7607231140137,41.1018104553223,101.873542785645,101.073837280273,38.2442054748535,38.6280250549316,1.73056626319885,1.65895104408264

CG_E0
Collection Time: 3/5/2018 10:37:41 PM
Operator Name  :
Scan Software Version: 1.2(147)
Parameter List :
Instrument                        Cary Eclipse
Instrument Serial Number          MY17190007
Data mode                         Fluorescence
Scan mode                         Emission
X Mode                            Wavelength (nm)
Start (nm)                        510.00
Stop (nm)                         600.00
Ex. Wavelength (nm)               506.00
Ex. Slit (nm)                     5
Em. Slit (nm)                     5
Scan rate (nm/min)                120.00
Data interval (nm)                1.0000
Averaging Time (s)                0.5000
Excitation filter                 335 - 620 nm
Emission filter                   Open
PMT voltage (V)                   High
Corrected spectra                 OFF
Method Log     :
Method Name    : C:\USERS\AGILENT\DOCUMENTS\FPSI\PHOTOBLEACHINGTESTS.FMSW
Date/Time stamp: 1/26/2018 5:56:29 PM
Method Modifications:
User Delta Stop Changed: 8/31/2017 1:44:06 PM, Old: 450.00, New: 488.00
User Delta Increment Changed: 8/31/2017 1:44:06 PM, Old:  10.00, New:   0.15
Excitation Wavelength Changed: 8/31/2017 1:44:06 PM, Old: 350.00, New: 488.00
Excitation Wavelength Changed: 8/31/2017 2:01:39 PM, Old: 488.00, New: 350.00
Excitation Wavelength Changed: 8/31/2017 2:15:07 PM, Old: 350.00, New: 488.00
Excitation Wavelength Changed: 9/2/2017 6:47:17 PM, Old: 488.00, New: 350.00
Emission Wavelength Changed: 9/2/2017 6:49:15 PM, Old: 400.00, New: 375.00
Instrument mode: Changed: 9/4/2017 3:26:33 PM, Old:Fluorescence, New:Phosphorescence
Ex. Slit Width (nm): Changed: 9/4/2017 3:26:33 PM, Old:5, New:20
Em. Slit Width (nm): Changed: 9/4/2017 3:26:33 PM, Old:5, New:10
Scan Control Changed: 9/4/2017 3:26:33 PM, Old:Medium, New:Manual
Instrument mode: Changed: 9/4/2017 3:27:51 PM, Old:Phosphorescence, New:Fluorescence
Ex. Slit Width (nm): Changed: 9/4/2017 3:27:51 PM, Old:20, New:5
Em. Slit Width (nm): Changed: 9/4/2017 3:27:51 PM, Old:10, New:5
Current Method Changed: 1/25/2018 10:01:26 PM, Old:C:\Users\agilent\Desktop\TPBScan.FMSW, New:C:\USERS\AGILENT\DESKTOP\TPBSCAN.FMSW
Excitation Filter: Changed: 1/25/2018 10:07:38 PM, Old:Auto, New:335 - 620 nm
Scan Control Changed: 1/25/2018 10:07:38 PM, Old:Manual, New:Medium
Excitation Wavelength Changed: 1/25/2018 10:07:38 PM, Old: 350.00, New: 488.00
Emission Wavelength Changed: 1/25/2018 10:07:38 PM, Old: 375.00, New: 500.00
Scan Control Changed: 1/25/2018 10:08:16 PM, Old:Medium, New:Slow
Ave. time (s): Changed: 1/25/2018 10:08:16 PM, Old:0.10000, New:0.50000
Scan Control Changed: 1/25/2018 10:10:15 PM, Old:Slow, New:Fast
Ave. time (s): Changed: 1/25/2018 10:10:15 PM, Old:0.50000, New:0.10000
Data interval: Changed: 1/25/2018 10:10:15 PM, Old:   1.00, New:   2.00
PMT Volts Changed: 1/25/2018 10:11:17 PM, Old:600, New:400
Scan mode: Changed: 1/25/2018 10:11:17 PM, Old:Emission, New:Excitation
Emission PMT (V): Changed: 1/25/2018 10:11:17 PM, Old: 600, New: 400
Excitation Wavelength Changed: 1/25/2018 10:11:17 PM, Old: 488.00, New: 500.00
Emission Wavelength Changed: 1/25/2018 10:11:17 PM, Old: 500.00, New: 488.00
PMT Volts Changed: 1/25/2018 10:12:03 PM, Old:400, New:600
Scan mode: Changed: 1/25/2018 10:12:03 PM, Old:Excitation, New:Emission
Emission PMT (V): Changed: 1/25/2018 10:12:03 PM, Old: 400, New: 600
Excitation Wavelength Changed: 1/25/2018 10:12:03 PM, Old: 500.00, New: 488.00
Emission Wavelength Changed: 1/25/2018 10:12:03 PM, Old: 488.00, New: 500.00
Ex. Slit Width (nm): Changed: 1/25/2018 10:13:02 PM, Old:5, New:1.5
Em. Slit Width (nm): Changed: 1/25/2018 10:13:02 PM, Old:5, New:1.5
Scan Control Changed: 1/25/2018 10:13:02 PM, Old:Fast, New:Slow
Ave. time (s): Changed: 1/25/2018 10:13:02 PM, Old:0.10000, New:0.50000
Data interval: Changed: 1/25/2018 10:13:02 PM, Old:   2.00, New:   1.00
Ex. Slit Width (nm): Changed: 1/25/2018 10:14:01 PM, Old:1.5, New:2.5
Em. Slit Width (nm): Changed: 1/25/2018 10:14:01 PM, Old:1.5, New:2.5
Add Text to graph Changed: 1/25/2018 10:38:26 PM, Old:Choice 0, New:Choice 1
Add Text to graph Changed: 1/25/2018 10:38:26 PM, Old:ON, New:ON
Add Text to graph Changed: 1/25/2018 10:38:26 PM, Old:ON, New:Choice 0
Peak Style Changed: 1/25/2018 10:38:51 PM, Old:Peaks, New:Valleys
Peak Style Changed: 1/25/2018 10:38:51 PM, Old:Valleys, New:Peaks Valleys
Peak Style Changed: 1/25/2018 10:38:51 PM, Old:Peaks Valleys, New:Zero Cross
Peak Style Changed: 1/25/2018 10:38:51 PM, Old:Zero Cross, New:Peaks
Current Method Changed: 3/5/2018 10:34:13 PM, Old:C:\Users\agilent\Documents\FPsi\PhotobleachingTests.FMSW, New:C:\USERS\AGILENT\DOCUMENTS\FPSI\PHOTOBLEACHINGTESTS.FMSW
PMT Volts Changed: 3/5/2018 10:35:05 PM, Old:600, New:800
Em. Slit Width (nm): Changed: 3/5/2018 10:35:05 PM, Old:2.5, New:5
User Delta Stop Changed: 3/5/2018 10:35:05 PM, Old: 488.00, New: 506.00
Emission PMT (V): Changed: 3/5/2018 10:35:05 PM, Old: 600, New: 800
Excitation Wavelength Changed: 3/5/2018 10:35:05 PM, Old: 488.00, New: 506.00
Emission Wavelength Changed: 3/5/2018 10:35:05 PM, Old: 500.00, New: 510.00
Ex. Slit Width (nm): Changed: 3/5/2018 10:36:25 PM, Old:2.5, New:5
End Method Modifications

CG_E0
Collection Time: 3/5/2018 10:40:45 PM
Operator Name  :
Scan Software Version: 1.2(147)
Parameter List :
Instrument                        Cary Eclipse
Instrument Serial Number          MY17190007
Data mode                         Fluorescence
Scan mode                         Emission
X Mode                            Wavelength (nm)
Start (nm)                        510.00
Stop (nm)                         600.00
Ex. Wavelength (nm)               506.00
Ex. Slit (nm)                     5
Em. Slit (nm)                     5
Scan rate (nm/min)                120.00
Data interval (nm)                1.0000
Averaging Time (s)                0.5000
Excitation filter                 335 - 620 nm
Emission filter                   Open
PMT voltage (V)                   High
Corrected spectra                 OFF
Method Log     :
Method Name    : C:\USERS\AGILENT\DOCUMENTS\FPSI\PHOTOBLEACHINGTESTS.FMSW
Date/Time stamp: 1/26/2018 5:56:29 PM
Method Modifications:
User Delta Stop Changed: 8/31/2017 1:44:06 PM, Old: 450.00, New: 488.00
User Delta Increment Changed: 8/31/2017 1:44:06 PM, Old:  10.00, New:   0.15
Excitation Wavelength Changed: 8/31/2017 1:44:06 PM, Old: 350.00, New: 488.00
Excitation Wavelength Changed: 8/31/2017 2:01:39 PM, Old: 488.00, New: 350.00
Excitation Wavelength Changed: 8/31/2017 2:15:07 PM, Old: 350.00, New: 488.00
Excitation Wavelength Changed: 9/2/2017 6:47:17 PM, Old: 488.00, New: 350.00
Emission Wavelength Changed: 9/2/2017 6:49:15 PM, Old: 400.00, New: 375.00
Instrument mode: Changed: 9/4/2017 3:26:33 PM, Old:Fluorescence, New:Phosphorescence
Ex. Slit Width (nm): Changed: 9/4/2017 3:26:33 PM, Old:5, New:20
Em. Slit Width (nm): Changed: 9/4/2017 3:26:33 PM, Old:5, New:10
Scan Control Changed: 9/4/2017 3:26:33 PM, Old:Medium, New:Manual
Instrument mode: Changed: 9/4/2017 3:27:51 PM, Old:Phosphorescence, New:Fluorescence
Ex. Slit Width (nm): Changed: 9/4/2017 3:27:51 PM, Old:20, New:5
Em. Slit Width (nm): Changed: 9/4/2017 3:27:51 PM, Old:10, New:5
Current Method Changed: 1/25/2018 10:01:26 PM, Old:C:\Users\agilent\Desktop\TPBScan.FMSW, New:C:\USERS\AGILENT\DESKTOP\TPBSCAN.FMSW
Excitation Filter: Changed: 1/25/2018 10:07:38 PM, Old:Auto, New:335 - 620 nm
Scan Control Changed: 1/25/2018 10:07:38 PM, Old:Manual, New:Medium
Excitation Wavelength Changed: 1/25/2018 10:07:38 PM, Old: 350.00, New: 488.00
Emission Wavelength Changed: 1/25/2018 10:07:38 PM, Old: 375.00, New: 500.00
Scan Control Changed: 1/25/2018 10:08:16 PM, Old:Medium, New:Slow
Ave. time (s): Changed: 1/25/2018 10:08:16 PM, Old:0.10000, New:0.50000
Scan Control Changed: 1/25/2018 10:10:15 PM, Old:Slow, New:Fast
Ave. time (s): Changed: 1/25/2018 10:10:15 PM, Old:0.50000, New:0.10000
Data interval: Changed: 1/25/2018 10:10:15 PM, Old:   1.00, New:   2.00
PMT Volts Changed: 1/25/2018 10:11:17 PM, Old:600, New:400
Scan mode: Changed: 1/25/2018 10:11:17 PM, Old:Emission, New:Excitation
Emission PMT (V): Changed: 1/25/2018 10:11:17 PM, Old: 600, New: 400
Excitation Wavelength Changed: 1/25/2018 10:11:17 PM, Old: 488.00, New: 500.00
Emission Wavelength Changed: 1/25/2018 10:11:17 PM, Old: 500.00, New: 488.00
PMT Volts Changed: 1/25/2018 10:12:03 PM, Old:400, New:600
Scan mode: Changed: 1/25/2018 10:12:03 PM, Old:Excitation, New:Emission
Emission PMT (V): Changed: 1/25/2018 10:12:03 PM, Old: 400, New: 600
Excitation Wavelength Changed: 1/25/2018 10:12:03 PM, Old: 500.00, New: 488.00
Emission Wavelength Changed: 1/25/2018 10:12:03 PM, Old: 488.00, New: 500.00
Ex. Slit Width (nm): Changed: 1/25/2018 10:13:02 PM, Old:5, New:1.5
Em. Slit Width (nm): Changed: 1/25/2018 10:13:02 PM, Old:5, New:1.5
Scan Control Changed: 1/25/2018 10:13:02 PM, Old:Fast, New:Slow
Ave. time (s): Changed: 1/25/2018 10:13:02 PM, Old:0.10000, New:0.50000
Data interval: Changed: 1/25/2018 10:13:02 PM, Old:   2.00, New:   1.00
Ex. Slit Width (nm): Changed: 1/25/2018 10:14:01 PM, Old:1.5, New:2.5
Em. Slit Width (nm): Changed: 1/25/2018 10:14:01 PM, Old:1.5, New:2.5
Add Text to graph Changed: 1/25/2018 10:38:26 PM, Old:Choice 0, New:Choice 1
Add Text to graph Changed: 1/25/2018 10:38:26 PM, Old:ON, New:ON
Add Text to graph Changed: 1/25/2018 10:38:26 PM, Old:ON, New:Choice 0
Peak Style Changed: 1/25/2018 10:38:51 PM, Old:Peaks, New:Valleys
Peak Style Changed: 1/25/2018 10:38:51 PM, Old:Valleys, New:Peaks Valleys
Peak Style Changed: 1/25/2018 10:38:51 PM, Old:Peaks Valleys, New:Zero Cross
Peak Style Changed: 1/25/2018 10:38:51 PM, Old:Zero Cross, New:Peaks
Current Method Changed: 3/5/2018 10:34:13 PM, Old:C:\Users\agilent\Documents\FPsi\PhotobleachingTests.FMSW, New:C:\USERS\AGILENT\DOCUMENTS\FPSI\PHOTOBLEACHINGTESTS.FMSW
PMT Volts Changed: 3/5/2018 10:35:05 PM, Old:600, New:800
Em. Slit Width (nm): Changed: 3/5/2018 10:35:05 PM, Old:2.5, New:5
User Delta Stop Changed: 3/5/2018 10:35:05 PM, Old: 488.00, New: 506.00
Emission PMT (V): Changed: 3/5/2018 10:35:05 PM, Old: 600, New: 800
Excitation Wavelength Changed: 3/5/2018 10:35:05 PM, Old: 488.00, New: 506.00
Emission Wavelength Changed: 3/5/2018 10:35:05 PM, Old: 500.00, New: 510.00
Ex. Slit Width (nm): Changed: 3/5/2018 10:36:25 PM, Old:2.5, New:5
Overlayed Graphs Changed: 3/5/2018 10:40:01 PM, Old:OFF, New:ON
End Method Modifications

CG_E5
Collection Time: 3/5/2018 10:56:05 PM
Operator Name  :
Scan Software Version: 1.2(147)
Parameter List :
Instrument                        Cary Eclipse
Instrument Serial Number          MY17190007
Data mode                         Fluorescence
Scan mode                         Emission
X Mode                            Wavelength (nm)
Start (nm)                        510.00
Stop (nm)                         600.00
Ex. Wavelength (nm)               506.00
Ex. Slit (nm)                     5
Em. Slit (nm)                     5
Scan rate (nm/min)                120.00
Data interval (nm)                1.0000
Averaging Time (s)                0.5000
Excitation filter                 335 - 620 nm
Emission filter                   Open
PMT voltage (V)                   High
Corrected spectra                 OFF
Method Log     :
Method Name    : C:\USERS\AGILENT\DOCUMENTS\FPSI\PHOTOBLEACHINGTESTS.FMSW
Date/Time stamp: 1/26/2018 5:56:29 PM
Method Modifications:
User Delta Stop Changed: 8/31/2017 1:44:06 PM, Old: 450.00, New: 488.00
User Delta Increment Changed: 8/31/2017 1:44:06 PM, Old:  10.00, New:   0.15
Excitation Wavelength Changed: 8/31/2017 1:44:06 PM, Old: 350.00, New: 488.00
Excitation Wavelength Changed: 8/31/2017 2:01:39 PM, Old: 488.00, New: 350.00
Excitation Wavelength Changed: 8/31/2017 2:15:07 PM, Old: 350.00, New: 488.00
Excitation Wavelength Changed: 9/2/2017 6:47:17 PM, Old: 488.00, New: 350.00
Emission Wavelength Changed: 9/2/2017 6:49:15 PM, Old: 400.00, New: 375.00
Instrument mode: Changed: 9/4/2017 3:26:33 PM, Old:Fluorescence, New:Phosphorescence
Ex. Slit Width (nm): Changed: 9/4/2017 3:26:33 PM, Old:5, New:20
Em. Slit Width (nm): Changed: 9/4/2017 3:26:33 PM, Old:5, New:10
Scan Control Changed: 9/4/2017 3:26:33 PM, Old:Medium, New:Manual
Instrument mode: Changed: 9/4/2017 3:27:51 PM, Old:Phosphorescence, New:Fluorescence
Ex. Slit Width (nm): Changed: 9/4/2017 3:27:51 PM, Old:20, New:5
Em. Slit Width (nm): Changed: 9/4/2017 3:27:51 PM, Old:10, New:5
Current Method Changed: 1/25/2018 10:01:26 PM, Old:C:\Users\agilent\Desktop\TPBScan.FMSW, New:C:\USERS\AGILENT\DESKTOP\TPBSCAN.FMSW
Excitation Filter: Changed: 1/25/2018 10:07:38 PM, Old:Auto, New:335 - 620 nm
Scan Control Changed: 1/25/2018 10:07:38 PM, Old:Manual, New:Medium
Excitation Wavelength Changed: 1/25/2018 10:07:38 PM, Old: 350.00, New: 488.00
Emission Wavelength Changed: 1/25/2018 10:07:38 PM, Old: 375.00, New: 500.00
Scan Control Changed: 1/25/2018 10:08:16 PM, Old:Medium, New:Slow
Ave. time (s): Changed: 1/25/2018 10:08:16 PM, Old:0.10000, New:0.50000
Scan Control Changed: 1/25/2018 10:10:15 PM, Old:Slow, New:Fast
Ave. time (s): Changed: 1/25/2018 10:10:15 PM, Old:0.50000, New:0.10000
Data interval: Changed: 1/25/2018 10:10:15 PM, Old:   1.00, New:   2.00
PMT Volts Changed: 1/25/2018 10:11:17 PM, Old:600, New:400
Scan mode: Changed: 1/25/2018 10:11:17 PM, Old:Emission, New:Excitation
Emission PMT (V): Changed: 1/25/2018 10:11:17 PM, Old: 600, New: 400
Excitation Wavelength Changed: 1/25/2018 10:11:17 PM, Old: 488.00, New: 500.00
Emission Wavelength Changed: 1/25/2018 10:11:17 PM, Old: 500.00, New: 488.00
PMT Volts Changed: 1/25/2018 10:12:03 PM, Old:400, New:600
Scan mode: Changed: 1/25/2018 10:12:03 PM, Old:Excitation, New:Emission
Emission PMT (V): Changed: 1/25/2018 10:12:03 PM, Old: 400, New: 600
Excitation Wavelength Changed: 1/25/2018 10:12:03 PM, Old: 500.00, New: 488.00
Emission Wavelength Changed: 1/25/2018 10:12:03 PM, Old: 488.00, New: 500.00
Ex. Slit Width (nm): Changed: 1/25/2018 10:13:02 PM, Old:5, New:1.5
Em. Slit Width (nm): Changed: 1/25/2018 10:13:02 PM, Old:5, New:1.5
Scan Control Changed: 1/25/2018 10:13:02 PM, Old:Fast, New:Slow
Ave. time (s): Changed: 1/25/2018 10:13:02 PM, Old:0.10000, New:0.50000
Data interval: Changed: 1/25/2018 10:13:02 PM, Old:   2.00, New:   1.00
Ex. Slit Width (nm): Changed: 1/25/2018 10:14:01 PM, Old:1.5, New:2.5
Em. Slit Width (nm): Changed: 1/25/2018 10:14:01 PM, Old:1.5, New:2.5
Add Text to graph Changed: 1/25/2018 10:38:26 PM, Old:Choice 0, New:Choice 1
Add Text to graph Changed: 1/25/2018 10:38:26 PM, Old:ON, New:ON
Add Text to graph Changed: 1/25/2018 10:38:26 PM, Old:ON, New:Choice 0
Peak Style Changed: 1/25/2018 10:38:51 PM, Old:Peaks, New:Valleys
Peak Style Changed: 1/25/2018 10:38:51 PM, Old:Valleys, New:Peaks Valleys
Peak Style Changed: 1/25/2018 10:38:51 PM, Old:Peaks Valleys, New:Zero Cross
Peak Style Changed: 1/25/2018 10:38:51 PM, Old:Zero Cross, New:Peaks
Current Method Changed: 3/5/2018 10:34:13 PM, Old:C:\Users\agilent\Documents\FPsi\PhotobleachingTests.FMSW, New:C:\USERS\AGILENT\DOCUMENTS\FPSI\PHOTOBLEACHINGTESTS.FMSW
PMT Volts Changed: 3/5/2018 10:35:05 PM, Old:600, New:800
Em. Slit Width (nm): Changed: 3/5/2018 10:35:05 PM, Old:2.5, New:5
User Delta Stop Changed: 3/5/2018 10:35:05 PM, Old: 488.00, New: 506.00
Emission PMT (V): Changed: 3/5/2018 10:35:05 PM, Old: 600, New: 800
Excitation Wavelength Changed: 3/5/2018 10:35:05 PM, Old: 488.00, New: 506.00
Emission Wavelength Changed: 3/5/2018 10:35:05 PM, Old: 500.00, New: 510.00
Ex. Slit Width (nm): Changed: 3/5/2018 10:36:25 PM, Old:2.5, New:5
Overlayed Graphs Changed: 3/5/2018 10:40:01 PM, Old:OFF, New:ON
End Method Modifications

CG_10
Collection Time: 3/5/2018 11:22:01 PM
Operator Name  :
Scan Software Version: 1.2(147)
Parameter List :
Instrument                        Cary Eclipse
Instrument Serial Number          MY17190007
Data mode                         Fluorescence
Scan mode                         Emission
X Mode                            Wavelength (nm)
Start (nm)                        510.00
Stop (nm)                         600.00
Ex. Wavelength (nm)               506.00
Ex. Slit (nm)                     5
Em. Slit (nm)                     5
Scan rate (nm/min)                120.00
Data interval (nm)                1.0000
Averaging Time (s)                0.5000
Excitation filter                 335 - 620 nm
Emission filter                   Open
PMT voltage (V)                   High
Corrected spectra                 OFF
Method Log     :
Method Name    : C:\USERS\AGILENT\DOCUMENTS\FPSI\PHOTOBLEACHINGTESTS.FMSW
Date/Time stamp: 1/26/2018 5:56:29 PM
Method Modifications:
User Delta Stop Changed: 8/31/2017 1:44:06 PM, Old: 450.00, New: 488.00
User Delta Increment Changed: 8/31/2017 1:44:06 PM, Old:  10.00, New:   0.15
Excitation Wavelength Changed: 8/31/2017 1:44:06 PM, Old: 350.00, New: 488.00
Excitation Wavelength Changed: 8/31/2017 2:01:39 PM, Old: 488.00, New: 350.00
Excitation Wavelength Changed: 8/31/2017 2:15:07 PM, Old: 350.00, New: 488.00
Excitation Wavelength Changed: 9/2/2017 6:47:17 PM, Old: 488.00, New: 350.00
Emission Wavelength Changed: 9/2/2017 6:49:15 PM, Old: 400.00, New: 375.00
Instrument mode: Changed: 9/4/2017 3:26:33 PM, Old:Fluorescence, New:Phosphorescence
Ex. Slit Width (nm): Changed: 9/4/2017 3:26:33 PM, Old:5, New:20
Em. Slit Width (nm): Changed: 9/4/2017 3:26:33 PM, Old:5, New:10
Scan Control Changed: 9/4/2017 3:26:33 PM, Old:Medium, New:Manual
Instrument mode: Changed: 9/4/2017 3:27:51 PM, Old:Phosphorescence, New:Fluorescence
Ex. Slit Width (nm): Changed: 9/4/2017 3:27:51 PM, Old:20, New:5
Em. Slit Width (nm): Changed: 9/4/2017 3:27:51 PM, Old:10, New:5
Current Method Changed: 1/25/2018 10:01:26 PM, Old:C:\Users\agilent\Desktop\TPBScan.FMSW, New:C:\USERS\AGILENT\DESKTOP\TPBSCAN.FMSW
Excitation Filter: Changed: 1/25/2018 10:07:38 PM, Old:Auto, New:335 - 620 nm
Scan Control Changed: 1/25/2018 10:07:38 PM, Old:Manual, New:Medium
Excitation Wavelength Changed: 1/25/2018 10:07:38 PM, Old: 350.00, New: 488.00
Emission Wavelength Changed: 1/25/2018 10:07:38 PM, Old: 375.00, New: 500.00
Scan Control Changed: 1/25/2018 10:08:16 PM, Old:Medium, New:Slow
Ave. time (s): Changed: 1/25/2018 10:08:16 PM, Old:0.10000, New:0.50000
Scan Control Changed: 1/25/2018 10:10:15 PM, Old:Slow, New:Fast
Ave. time (s): Changed: 1/25/2018 10:10:15 PM, Old:0.50000, New:0.10000
Data interval: Changed: 1/25/2018 10:10:15 PM, Old:   1.00, New:   2.00
PMT Volts Changed: 1/25/2018 10:11:17 PM, Old:600, New:400
Scan mode: Changed: 1/25/2018 10:11:17 PM, Old:Emission, New:Excitation
Emission PMT (V): Changed: 1/25/2018 10:11:17 PM, Old: 600, New: 400
Excitation Wavelength Changed: 1/25/2018 10:11:17 PM, Old: 488.00, New: 500.00
Emission Wavelength Changed: 1/25/2018 10:11:17 PM, Old: 500.00, New: 488.00
PMT Volts Changed: 1/25/2018 10:12:03 PM, Old:400, New:600
Scan mode: Changed: 1/25/2018 10:12:03 PM, Old:Excitation, New:Emission
Emission PMT (V): Changed: 1/25/2018 10:12:03 PM, Old: 400, New: 600
Excitation Wavelength Changed: 1/25/2018 10:12:03 PM, Old: 500.00, New: 488.00
Emission Wavelength Changed: 1/25/2018 10:12:03 PM, Old: 488.00, New: 500.00
Ex. Slit Width (nm): Changed: 1/25/2018 10:13:02 PM, Old:5, New:1.5
Em. Slit Width (nm): Changed: 1/25/2018 10:13:02 PM, Old:5, New:1.5
Scan Control Changed: 1/25/2018 10:13:02 PM, Old:Fast, New:Slow
Ave. time (s): Changed: 1/25/2018 10:13:02 PM, Old:0.10000, New:0.50000
Data interval: Changed: 1/25/2018 10:13:02 PM, Old:   2.00, New:   1.00
Ex. Slit Width (nm): Changed: 1/25/2018 10:14:01 PM, Old:1.5, New:2.5
Em. Slit Width (nm): Changed: 1/25/2018 10:14:01 PM, Old:1.5, New:2.5
Add Text to graph Changed: 1/25/2018 10:38:26 PM, Old:Choice 0, New:Choice 1
Add Text to graph Changed: 1/25/2018 10:38:26 PM, Old:ON, New:ON
Add Text to graph Changed: 1/25/2018 10:38:26 PM, Old:ON, New:Choice 0
Peak Style Changed: 1/25/2018 10:38:51 PM, Old:Peaks, New:Valleys
Peak Style Changed: 1/25/2018 10:38:51 PM, Old:Valleys, New:Peaks Valleys
Peak Style Changed: 1/25/2018 10:38:51 PM, Old:Peaks Valleys, New:Zero Cross
Peak Style Changed: 1/25/2018 10:38:51 PM, Old:Zero Cross, New:Peaks
Current Method Changed: 3/5/2018 10:34:13 PM, Old:C:\Users\agilent\Documents\FPsi\PhotobleachingTests.FMSW, New:C:\USERS\AGILENT\DOCUMENTS\FPSI\PHOTOBLEACHINGTESTS.FMSW
PMT Volts Changed: 3/5/2018 10:35:05 PM, Old:600, New:800
Em. Slit Width (nm): Changed: 3/5/2018 10:35:05 PM, Old:2.5, New:5
User Delta Stop Changed: 3/5/2018 10:35:05 PM, Old: 488.00, New: 506.00
Emission PMT (V): Changed: 3/5/2018 10:35:05 PM, Old: 600, New: 800
Excitation Wavelength Changed: 3/5/2018 10:35:05 PM, Old: 488.00, New: 506.00
Emission Wavelength Changed: 3/5/2018 10:35:05 PM, Old: 500.00, New: 510.00
Ex. Slit Width (nm): Changed: 3/5/2018 10:36:25 PM, Old:2.5, New:5
Overlayed Graphs Changed: 3/5/2018 10:40:01 PM, Old:OFF, New:ON
End Method Modifications

CG_20
Collection Time: 3/5/2018 11:43:35 PM
Operator Name  :
Scan Software Version: 1.2(147)
Parameter List :
Instrument                        Cary Eclipse
Instrument Serial Number          MY17190007
Data mode                         Fluorescence
Scan mode                         Emission
X Mode                            Wavelength (nm)
Start (nm)                        510.00
Stop (nm)                         600.00
Ex. Wavelength (nm)               506.00
Ex. Slit (nm)                     5
Em. Slit (nm)                     5
Scan rate (nm/min)                120.00
Data interval (nm)                1.0000
Averaging Time (s)                0.5000
Excitation filter                 335 - 620 nm
Emission filter                   Open
PMT voltage (V)                   High
Corrected spectra                 OFF
Method Log     :
Method Name    : C:\USERS\AGILENT\DOCUMENTS\FPSI\PHOTOBLEACHINGTESTS.FMSW
Date/Time stamp: 1/26/2018 5:56:29 PM
Method Modifications:
User Delta Stop Changed: 8/31/2017 1:44:06 PM, Old: 450.00, New: 488.00
User Delta Increment Changed: 8/31/2017 1:44:06 PM, Old:  10.00, New:   0.15
Excitation Wavelength Changed: 8/31/2017 1:44:06 PM, Old: 350.00, New: 488.00
Excitation Wavelength Changed: 8/31/2017 2:01:39 PM, Old: 488.00, New: 350.00
Excitation Wavelength Changed: 8/31/2017 2:15:07 PM, Old: 350.00, New: 488.00
Excitation Wavelength Changed: 9/2/2017 6:47:17 PM, Old: 488.00, New: 350.00
Emission Wavelength Changed: 9/2/2017 6:49:15 PM, Old: 400.00, New: 375.00
Instrument mode: Changed: 9/4/2017 3:26:33 PM, Old:Fluorescence, New:Phosphorescence
Ex. Slit Width (nm): Changed: 9/4/2017 3:26:33 PM, Old:5, New:20
Em. Slit Width (nm): Changed: 9/4/2017 3:26:33 PM, Old:5, New:10
Scan Control Changed: 9/4/2017 3:26:33 PM, Old:Medium, New:Manual
Instrument mode: Changed: 9/4/2017 3:27:51 PM, Old:Phosphorescence, New:Fluorescence
Ex. Slit Width (nm): Changed: 9/4/2017 3:27:51 PM, Old:20, New:5
Em. Slit Width (nm): Changed: 9/4/2017 3:27:51 PM, Old:10, New:5
Current Method Changed: 1/25/2018 10:01:26 PM, Old:C:\Users\agilent\Desktop\TPBScan.FMSW, New:C:\USERS\AGILENT\DESKTOP\TPBSCAN.FMSW
Excitation Filter: Changed: 1/25/2018 10:07:38 PM, Old:Auto, New:335 - 620 nm
Scan Control Changed: 1/25/2018 10:07:38 PM, Old:Manual, New:Medium
Excitation Wavelength Changed: 1/25/2018 10:07:38 PM, Old: 350.00, New: 488.00
Emission Wavelength Changed: 1/25/2018 10:07:38 PM, Old: 375.00, New: 500.00
Scan Control Changed: 1/25/2018 10:08:16 PM, Old:Medium, New:Slow
Ave. time (s): Changed: 1/25/2018 10:08:16 PM, Old:0.10000, New:0.50000
Scan Control Changed: 1/25/2018 10:10:15 PM, Old:Slow, New:Fast
Ave. time (s): Changed: 1/25/2018 10:10:15 PM, Old:0.50000, New:0.10000
Data interval: Changed: 1/25/2018 10:10:15 PM, Old:   1.00, New:   2.00
PMT Volts Changed: 1/25/2018 10:11:17 PM, Old:600, New:400
Scan mode: Changed: 1/25/2018 10:11:17 PM, Old:Emission, New:Excitation
Emission PMT (V): Changed: 1/25/2018 10:11:17 PM, Old: 600, New: 400
Excitation Wavelength Changed: 1/25/2018 10:11:17 PM, Old: 488.00, New: 500.00
Emission Wavelength Changed: 1/25/2018 10:11:17 PM, Old: 500.00, New: 488.00
PMT Volts Changed: 1/25/2018 10:12:03 PM, Old:400, New:600
Scan mode: Changed: 1/25/2018 10:12:03 PM, Old:Excitation, New:Emission
Emission PMT (V): Changed: 1/25/2018 10:12:03 PM, Old: 400, New: 600
Excitation Wavelength Changed: 1/25/2018 10:12:03 PM, Old: 500.00, New: 488.00
Emission Wavelength Changed: 1/25/2018 10:12:03 PM, Old: 488.00, New: 500.00
Ex. Slit Width (nm): Changed: 1/25/2018 10:13:02 PM, Old:5, New:1.5
Em. Slit Width (nm): Changed: 1/25/2018 10:13:02 PM, Old:5, New:1.5
Scan Control Changed: 1/25/2018 10:13:02 PM, Old:Fast, New:Slow
Ave. time (s): Changed: 1/25/2018 10:13:02 PM, Old:0.10000, New:0.50000
Data interval: Changed: 1/25/2018 10:13:02 PM, Old:   2.00, New:   1.00
Ex. Slit Width (nm): Changed: 1/25/2018 10:14:01 PM, Old:1.5, New:2.5
Em. Slit Width (nm): Changed: 1/25/2018 10:14:01 PM, Old:1.5, New:2.5
Add Text to graph Changed: 1/25/2018 10:38:26 PM, Old:Choice 0, New:Choice 1
Add Text to graph Changed: 1/25/2018 10:38:26 PM, Old:ON, New:ON
Add Text to graph Changed: 1/25/2018 10:38:26 PM, Old:ON, New:Choice 0
Peak Style Changed: 1/25/2018 10:38:51 PM, Old:Peaks, New:Valleys
Peak Style Changed: 1/25/2018 10:38:51 PM, Old:Valleys, New:Peaks Valleys
Peak Style Changed: 1/25/2018 10:38:51 PM, Old:Peaks Valleys, New:Zero Cross
Peak Style Changed: 1/25/2018 10:38:51 PM, Old:Zero Cross, New:Peaks
Current Method Changed: 3/5/2018 10:34:13 PM, Old:C:\Users\agilent\Documents\FPsi\PhotobleachingTests.FMSW, New:C:\USERS\AGILENT\DOCUMENTS\FPSI\PHOTOBLEACHINGTESTS.FMSW
PMT Volts Changed: 3/5/2018 10:35:05 PM, Old:600, New:800
Em. Slit Width (nm): Changed: 3/5/2018 10:35:05 PM, Old:2.5, New:5
User Delta Stop Changed: 3/5/2018 10:35:05 PM, Old: 488.00, New: 506.00
Emission PMT (V): Changed: 3/5/2018 10:35:05 PM, Old: 600, New: 800
Excitation Wavelength Changed: 3/5/2018 10:35:05 PM, Old: 488.00, New: 506.00
Emission Wavelength Changed: 3/5/2018 10:35:05 PM, Old: 500.00, New: 510.00
Ex. Slit Width (nm): Changed: 3/5/2018 10:36:25 PM, Old:2.5, New:5
Overlayed Graphs Changed: 3/5/2018 10:40:01 PM, Old:OFF, New:ON
End Method Modifications

CG_E21\
Collection Time: 3/5/2018 11:45:44 PM
Operator Name  :
Scan Software Version: 1.2(147)
Parameter List :
Instrument                        Cary Eclipse
Instrument Serial Number          MY17190007
Data mode                         Fluorescence
Scan mode                         Emission
X Mode                            Wavelength (nm)
Start (nm)                        510.00
Stop (nm)                         600.00
Ex. Wavelength (nm)               506.00
Ex. Slit (nm)                     5
Em. Slit (nm)                     5
Scan rate (nm/min)                120.00
Data interval (nm)                1.0000
Averaging Time (s)                0.5000
Excitation filter                 335 - 620 nm
Emission filter                   Open
PMT voltage (V)                   High
Corrected spectra                 OFF
Method Log     :
Method Name    : C:\USERS\AGILENT\DOCUMENTS\FPSI\PHOTOBLEACHINGTESTS.FMSW
Date/Time stamp: 1/26/2018 5:56:29 PM
Method Modifications:
User Delta Stop Changed: 8/31/2017 1:44:06 PM, Old: 450.00, New: 488.00
User Delta Increment Changed: 8/31/2017 1:44:06 PM, Old:  10.00, New:   0.15
Excitation Wavelength Changed: 8/31/2017 1:44:06 PM, Old: 350.00, New: 488.00
Excitation Wavelength Changed: 8/31/2017 2:01:39 PM, Old: 488.00, New: 350.00
Excitation Wavelength Changed: 8/31/2017 2:15:07 PM, Old: 350.00, New: 488.00
Excitation Wavelength Changed: 9/2/2017 6:47:17 PM, Old: 488.00, New: 350.00
Emission Wavelength Changed: 9/2/2017 6:49:15 PM, Old: 400.00, New: 375.00
Instrument mode: Changed: 9/4/2017 3:26:33 PM, Old:Fluorescence, New:Phosphorescence
Ex. Slit Width (nm): Changed: 9/4/2017 3:26:33 PM, Old:5, New:20
Em. Slit Width (nm): Changed: 9/4/2017 3:26:33 PM, Old:5, New:10
Scan Control Changed: 9/4/2017 3:26:33 PM, Old:Medium, New:Manual
Instrument mode: Changed: 9/4/2017 3:27:51 PM, Old:Phosphorescence, New:Fluorescence
Ex. Slit Width (nm): Changed: 9/4/2017 3:27:51 PM, Old:20, New:5
Em. Slit Width (nm): Changed: 9/4/2017 3:27:51 PM, Old:10, New:5
Current Method Changed: 1/25/2018 10:01:26 PM, Old:C:\Users\agilent\Desktop\TPBScan.FMSW, New:C:\USERS\AGILENT\DESKTOP\TPBSCAN.FMSW
Excitation Filter: Changed: 1/25/2018 10:07:38 PM, Old:Auto, New:335 - 620 nm
Scan Control Changed: 1/25/2018 10:07:38 PM, Old:Manual, New:Medium
Excitation Wavelength Changed: 1/25/2018 10:07:38 PM, Old: 350.00, New: 488.00
Emission Wavelength Changed: 1/25/2018 10:07:38 PM, Old: 375.00, New: 500.00
Scan Control Changed: 1/25/2018 10:08:16 PM, Old:Medium, New:Slow
Ave. time (s): Changed: 1/25/2018 10:08:16 PM, Old:0.10000, New:0.50000
Scan Control Changed: 1/25/2018 10:10:15 PM, Old:Slow, New:Fast
Ave. time (s): Changed: 1/25/2018 10:10:15 PM, Old:0.50000, New:0.10000
Data interval: Changed: 1/25/2018 10:10:15 PM, Old:   1.00, New:   2.00
PMT Volts Changed: 1/25/2018 10:11:17 PM, Old:600, New:400
Scan mode: Changed: 1/25/2018 10:11:17 PM, Old:Emission, New:Excitation
Emission PMT (V): Changed: 1/25/2018 10:11:17 PM, Old: 600, New: 400
Excitation Wavelength Changed: 1/25/2018 10:11:17 PM, Old: 488.00, New: 500.00
Emission Wavelength Changed: 1/25/2018 10:11:17 PM, Old: 500.00, New: 488.00
PMT Volts Changed: 1/25/2018 10:12:03 PM, Old:400, New:600
Scan mode: Changed: 1/25/2018 10:12:03 PM, Old:Excitation, New:Emission
Emission PMT (V): Changed: 1/25/2018 10:12:03 PM, Old: 400, New: 600
Excitation Wavelength Changed: 1/25/2018 10:12:03 PM, Old: 500.00, New: 488.00
Emission Wavelength Changed: 1/25/2018 10:12:03 PM, Old: 488.00, New: 500.00
Ex. Slit Width (nm): Changed: 1/25/2018 10:13:02 PM, Old:5, New:1.5
Em. Slit Width (nm): Changed: 1/25/2018 10:13:02 PM, Old:5, New:1.5
Scan Control Changed: 1/25/2018 10:13:02 PM, Old:Fast, New:Slow
Ave. time (s): Changed: 1/25/2018 10:13:02 PM, Old:0.10000, New:0.50000
Data interval: Changed: 1/25/2018 10:13:02 PM, Old:   2.00, New:   1.00
Ex. Slit Width (nm): Changed: 1/25/2018 10:14:01 PM, Old:1.5, New:2.5
Em. Slit Width (nm): Changed: 1/25/2018 10:14:01 PM, Old:1.5, New:2.5
Add Text to graph Changed: 1/25/2018 10:38:26 PM, Old:Choice 0, New:Choice 1
Add Text to graph Changed: 1/25/2018 10:38:26 PM, Old:ON, New:ON
Add Text to graph Changed: 1/25/2018 10:38:26 PM, Old:ON, New:Choice 0
Peak Style Changed: 1/25/2018 10:38:51 PM, Old:Peaks, New:Valleys
Peak Style Changed: 1/25/2018 10:38:51 PM, Old:Valleys, New:Peaks Valleys
Peak Style Changed: 1/25/2018 10:38:51 PM, Old:Peaks Valleys, New:Zero Cross
Peak Style Changed: 1/25/2018 10:38:51 PM, Old:Zero Cross, New:Peaks
Current Method Changed: 3/5/2018 10:34:13 PM, Old:C:\Users\agilent\Documents\FPsi\PhotobleachingTests.FMSW, New:C:\USERS\AGILENT\DOCUMENTS\FPSI\PHOTOBLEACHINGTESTS.FMSW
PMT Volts Changed: 3/5/2018 10:35:05 PM, Old:600, New:800
Em. Slit Width (nm): Changed: 3/5/2018 10:35:05 PM, Old:2.5, New:5
User Delta Stop Changed: 3/5/2018 10:35:05 PM, Old: 488.00, New: 506.00
Emission PMT (V): Changed: 3/5/2018 10:35:05 PM, Old: 600, New: 800
Excitation Wavelength Changed: 3/5/2018 10:35:05 PM, Old: 488.00, New: 506.00
Emission Wavelength Changed: 3/5/2018 10:35:05 PM, Old: 500.00, New: 510.00
Ex. Slit Width (nm): Changed: 3/5/2018 10:36:25 PM, Old:2.5, New:5
Overlayed Graphs Changed: 3/5/2018 10:40:01 PM, Old:OFF, New:ON
End Method Modifications

CG_E30
Collection Time: 3/6/2018 12:01:01 AM
Operator Name  :
Scan Software Version: 1.2(147)
Parameter List :
Instrument                        Cary Eclipse
Instrument Serial Number          MY17190007
Data mode                         Fluorescence
Scan mode                         Emission
X Mode                            Wavelength (nm)
Start (nm)                        510.00
Stop (nm)                         600.00
Ex. Wavelength (nm)               506.00
Ex. Slit (nm)                     5
Em. Slit (nm)                     5
Scan rate (nm/min)                120.00
Data interval (nm)                1.0000
Averaging Time (s)                0.5000
Excitation filter                 335 - 620 nm
Emission filter                   Open
PMT voltage (V)                   High
Corrected spectra                 OFF
Method Log     :
Method Name    : C:\USERS\AGILENT\DOCUMENTS\FPSI\PHOTOBLEACHINGTESTS.FMSW
Date/Time stamp: 1/26/2018 5:56:29 PM
Method Modifications:
User Delta Stop Changed: 8/31/2017 1:44:06 PM, Old: 450.00, New: 488.00
User Delta Increment Changed: 8/31/2017 1:44:06 PM, Old:  10.00, New:   0.15
Excitation Wavelength Changed: 8/31/2017 1:44:06 PM, Old: 350.00, New: 488.00
Excitation Wavelength Changed: 8/31/2017 2:01:39 PM, Old: 488.00, New: 350.00
Excitation Wavelength Changed: 8/31/2017 2:15:07 PM, Old: 350.00, New: 488.00
Excitation Wavelength Changed: 9/2/2017 6:47:17 PM, Old: 488.00, New: 350.00
Emission Wavelength Changed: 9/2/2017 6:49:15 PM, Old: 400.00, New: 375.00
Instrument mode: Changed: 9/4/2017 3:26:33 PM, Old:Fluorescence, New:Phosphorescence
Ex. Slit Width (nm): Changed: 9/4/2017 3:26:33 PM, Old:5, New:20
Em. Slit Width (nm): Changed: 9/4/2017 3:26:33 PM, Old:5, New:10
Scan Control Changed: 9/4/2017 3:26:33 PM, Old:Medium, New:Manual
Instrument mode: Changed: 9/4/2017 3:27:51 PM, Old:Phosphorescence, New:Fluorescence
Ex. Slit Width (nm): Changed: 9/4/2017 3:27:51 PM, Old:20, New:5
Em. Slit Width (nm): Changed: 9/4/2017 3:27:51 PM, Old:10, New:5
Current Method Changed: 1/25/2018 10:01:26 PM, Old:C:\Users\agilent\Desktop\TPBScan.FMSW, New:C:\USERS\AGILENT\DESKTOP\TPBSCAN.FMSW
Excitation Filter: Changed: 1/25/2018 10:07:38 PM, Old:Auto, New:335 - 620 nm
Scan Control Changed: 1/25/2018 10:07:38 PM, Old:Manual, New:Medium
Excitation Wavelength Changed: 1/25/2018 10:07:38 PM, Old: 350.00, New: 488.00
Emission Wavelength Changed: 1/25/2018 10:07:38 PM, Old: 375.00, New: 500.00
Scan Control Changed: 1/25/2018 10:08:16 PM, Old:Medium, New:Slow
Ave. time (s): Changed: 1/25/2018 10:08:16 PM, Old:0.10000, New:0.50000
Scan Control Changed: 1/25/2018 10:10:15 PM, Old:Slow, New:Fast
Ave. time (s): Changed: 1/25/2018 10:10:15 PM, Old:0.50000, New:0.10000
Data interval: Changed: 1/25/2018 10:10:15 PM, Old:   1.00, New:   2.00
PMT Volts Changed: 1/25/2018 10:11:17 PM, Old:600, New:400
Scan mode: Changed: 1/25/2018 10:11:17 PM, Old:Emission, New:Excitation
Emission PMT (V): Changed: 1/25/2018 10:11:17 PM, Old: 600, New: 400
Excitation Wavelength Changed: 1/25/2018 10:11:17 PM, Old: 488.00, New: 500.00
Emission Wavelength Changed: 1/25/2018 10:11:17 PM, Old: 500.00, New: 488.00
PMT Volts Changed: 1/25/2018 10:12:03 PM, Old:400, New:600
Scan mode: Changed: 1/25/2018 10:12:03 PM, Old:Excitation, New:Emission
Emission PMT (V): Changed: 1/25/2018 10:12:03 PM, Old: 400, New: 600
Excitation Wavelength Changed: 1/25/2018 10:12:03 PM, Old: 500.00, New: 488.00
Emission Wavelength Changed: 1/25/2018 10:12:03 PM, Old: 488.00, New: 500.00
Ex. Slit Width (nm): Changed: 1/25/2018 10:13:02 PM, Old:5, New:1.5
Em. Slit Width (nm): Changed: 1/25/2018 10:13:02 PM, Old:5, New:1.5
Scan Control Changed: 1/25/2018 10:13:02 PM, Old:Fast, New:Slow
Ave. time (s): Changed: 1/25/2018 10:13:02 PM, Old:0.10000, New:0.50000
Data interval: Changed: 1/25/2018 10:13:02 PM, Old:   2.00, New:   1.00
Ex. Slit Width (nm): Changed: 1/25/2018 10:14:01 PM, Old:1.5, New:2.5
Em. Slit Width (nm): Changed: 1/25/2018 10:14:01 PM, Old:1.5, New:2.5
Add Text to graph Changed: 1/25/2018 10:38:26 PM, Old:Choice 0, New:Choice 1
Add Text to graph Changed: 1/25/2018 10:38:26 PM, Old:ON, New:ON
Add Text to graph Changed: 1/25/2018 10:38:26 PM, Old:ON, New:Choice 0
Peak Style Changed: 1/25/2018 10:38:51 PM, Old:Peaks, New:Valleys
Peak Style Changed: 1/25/2018 10:38:51 PM, Old:Valleys, New:Peaks Valleys
Peak Style Changed: 1/25/2018 10:38:51 PM, Old:Peaks Valleys, New:Zero Cross
Peak Style Changed: 1/25/2018 10:38:51 PM, Old:Zero Cross, New:Peaks
Current Method Changed: 3/5/2018 10:34:13 PM, Old:C:\Users\agilent\Documents\FPsi\PhotobleachingTests.FMSW, New:C:\USERS\AGILENT\DOCUMENTS\FPSI\PHOTOBLEACHINGTESTS.FMSW
PMT Volts Changed: 3/5/2018 10:35:05 PM, Old:600, New:800
Em. Slit Width (nm): Changed: 3/5/2018 10:35:05 PM, Old:2.5, New:5
User Delta Stop Changed: 3/5/2018 10:35:05 PM, Old: 488.00, New: 506.00
Emission PMT (V): Changed: 3/5/2018 10:35:05 PM, Old: 600, New: 800
Excitation Wavelength Changed: 3/5/2018 10:35:05 PM, Old: 488.00, New: 506.00
Emission Wavelength Changed: 3/5/2018 10:35:05 PM, Old: 500.00, New: 510.00
Ex. Slit Width (nm): Changed: 3/5/2018 10:36:25 PM, Old:2.5, New:5
Overlayed Graphs Changed: 3/5/2018 10:40:01 PM, Old:OFF, New:ON
End Method Modifications

CG_E31
Collection Time: 3/6/2018 12:04:49 AM
Operator Name  :
Scan Software Version: 1.2(147)
Parameter List :
Instrument                        Cary Eclipse
Instrument Serial Number          MY17190007
Data mode                         Fluorescence
Scan mode                         Emission
X Mode                            Wavelength (nm)
Start (nm)                        510.00
Stop (nm)                         600.00
Ex. Wavelength (nm)               506.00
Ex. Slit (nm)                     5
Em. Slit (nm)                     5
Scan rate (nm/min)                120.00
Data interval (nm)                1.0000
Averaging Time (s)                0.5000
Excitation filter                 335 - 620 nm
Emission filter                   Open
PMT voltage (V)                   High
Corrected spectra                 OFF
Method Log     :
Method Name    : C:\USERS\AGILENT\DOCUMENTS\FPSI\PHOTOBLEACHINGTESTS.FMSW
Date/Time stamp: 1/26/2018 5:56:29 PM
Method Modifications:
User Delta Stop Changed: 8/31/2017 1:44:06 PM, Old: 450.00, New: 488.00
User Delta Increment Changed: 8/31/2017 1:44:06 PM, Old:  10.00, New:   0.15
Excitation Wavelength Changed: 8/31/2017 1:44:06 PM, Old: 350.00, New: 488.00
Excitation Wavelength Changed: 8/31/2017 2:01:39 PM, Old: 488.00, New: 350.00
Excitation Wavelength Changed: 8/31/2017 2:15:07 PM, Old: 350.00, New: 488.00
Excitation Wavelength Changed: 9/2/2017 6:47:17 PM, Old: 488.00, New: 350.00
Emission Wavelength Changed: 9/2/2017 6:49:15 PM, Old: 400.00, New: 375.00
Instrument mode: Changed: 9/4/2017 3:26:33 PM, Old:Fluorescence, New:Phosphorescence
Ex. Slit Width (nm): Changed: 9/4/2017 3:26:33 PM, Old:5, New:20
Em. Slit Width (nm): Changed: 9/4/2017 3:26:33 PM, Old:5, New:10
Scan Control Changed: 9/4/2017 3:26:33 PM, Old:Medium, New:Manual
Instrument mode: Changed: 9/4/2017 3:27:51 PM, Old:Phosphorescence, New:Fluorescence
Ex. Slit Width (nm): Changed: 9/4/2017 3:27:51 PM, Old:20, New:5
Em. Slit Width (nm): Changed: 9/4/2017 3:27:51 PM, Old:10, New:5
Current Method Changed: 1/25/2018 10:01:26 PM, Old:C:\Users\agilent\Desktop\TPBScan.FMSW, New:C:\USERS\AGILENT\DESKTOP\TPBSCAN.FMSW
Excitation Filter: Changed: 1/25/2018 10:07:38 PM, Old:Auto, New:335 - 620 nm
Scan Control Changed: 1/25/2018 10:07:38 PM, Old:Manual, New:Medium
Excitation Wavelength Changed: 1/25/2018 10:07:38 PM, Old: 350.00, New: 488.00
Emission Wavelength Changed: 1/25/2018 10:07:38 PM, Old: 375.00, New: 500.00
Scan Control Changed: 1/25/2018 10:08:16 PM, Old:Medium, New:Slow
Ave. time (s): Changed: 1/25/2018 10:08:16 PM, Old:0.10000, New:0.50000
Scan Control Changed: 1/25/2018 10:10:15 PM, Old:Slow, New:Fast
Ave. time (s): Changed: 1/25/2018 10:10:15 PM, Old:0.50000, New:0.10000
Data interval: Changed: 1/25/2018 10:10:15 PM, Old:   1.00, New:   2.00
PMT Volts Changed: 1/25/2018 10:11:17 PM, Old:600, New:400
Scan mode: Changed: 1/25/2018 10:11:17 PM, Old:Emission, New:Excitation
Emission PMT (V): Changed: 1/25/2018 10:11:17 PM, Old: 600, New: 400
Excitation Wavelength Changed: 1/25/2018 10:11:17 PM, Old: 488.00, New: 500.00
Emission Wavelength Changed: 1/25/2018 10:11:17 PM, Old: 500.00, New: 488.00
PMT Volts Changed: 1/25/2018 10:12:03 PM, Old:400, New:600
Scan mode: Changed: 1/25/2018 10:12:03 PM, Old:Excitation, New:Emission
Emission PMT (V): Changed: 1/25/2018 10:12:03 PM, Old: 400, New: 600
Excitation Wavelength Changed: 1/25/2018 10:12:03 PM, Old: 500.00, New: 488.00
Emission Wavelength Changed: 1/25/2018 10:12:03 PM, Old: 488.00, New: 500.00
Ex. Slit Width (nm): Changed: 1/25/2018 10:13:02 PM, Old:5, New:1.5
Em. Slit Width (nm): Changed: 1/25/2018 10:13:02 PM, Old:5, New:1.5
Scan Control Changed: 1/25/2018 10:13:02 PM, Old:Fast, New:Slow
Ave. time (s): Changed: 1/25/2018 10:13:02 PM, Old:0.10000, New:0.50000
Data interval: Changed: 1/25/2018 10:13:02 PM, Old:   2.00, New:   1.00
Ex. Slit Width (nm): Changed: 1/25/2018 10:14:01 PM, Old:1.5, New:2.5
Em. Slit Width (nm): Changed: 1/25/2018 10:14:01 PM, Old:1.5, New:2.5
Add Text to graph Changed: 1/25/2018 10:38:26 PM, Old:Choice 0, New:Choice 1
Add Text to graph Changed: 1/25/2018 10:38:26 PM, Old:ON, New:ON
Add Text to graph Changed: 1/25/2018 10:38:26 PM, Old:ON, New:Choice 0
Peak Style Changed: 1/25/2018 10:38:51 PM, Old:Peaks, New:Valleys
Peak Style Changed: 1/25/2018 10:38:51 PM, Old:Valleys, New:Peaks Valleys
Peak Style Changed: 1/25/2018 10:38:51 PM, Old:Peaks Valleys, New:Zero Cross
Peak Style Changed: 1/25/2018 10:38:51 PM, Old:Zero Cross, New:Peaks
Current Method Changed: 3/5/2018 10:34:13 PM, Old:C:\Users\agilent\Documents\FPsi\PhotobleachingTests.FMSW, New:C:\USERS\AGILENT\DOCUMENTS\FPSI\PHOTOBLEACHINGTESTS.FMSW
PMT Volts Changed: 3/5/2018 10:35:05 PM, Old:600, New:800
Em. Slit Width (nm): Changed: 3/5/2018 10:35:05 PM, Old:2.5, New:5
User Delta Stop Changed: 3/5/2018 10:35:05 PM, Old: 488.00, New: 506.00
Emission PMT (V): Changed: 3/5/2018 10:35:05 PM, Old: 600, New: 800
Excitation Wavelength Changed: 3/5/2018 10:35:05 PM, Old: 488.00, New: 506.00
Emission Wavelength Changed: 3/5/2018 10:35:05 PM, Old: 500.00, New: 510.00
Ex. Slit Width (nm): Changed: 3/5/2018 10:36:25 PM, Old:2.5, New:5
Overlayed Graphs Changed: 3/5/2018 10:40:01 PM, Old:OFF, New:ON
End Method Modifications

CG1w
Collection Time: 3/12/2018 11:49:13 AM
Operator Name  :
Scan Software Version: 1.2(147)
Parameter List :
Instrument                        Cary Eclipse
Instrument Serial Number          MY17190007
Data mode                         Fluorescence
Scan mode                         Emission
X Mode                            Wavelength (nm)
Start (nm)                        510.00
Stop (nm)                         600.00
Ex. Wavelength (nm)               506.00
Ex. Slit (nm)                     5
Em. Slit (nm)                     5
Scan rate (nm/min)                120.00
Data interval (nm)                1.0000
Averaging Time (s)                0.5000
Excitation filter                 335 - 620 nm
Emission filter                   Open
PMT voltage (V)                   High
Corrected spectra                 OFF
Method Log     :
Method Name    : C:\USERS\AGILENT\DOCUMENTS\FPSI\PHOTOBLEACHINGTESTS.FMSW
Date/Time stamp: 1/26/2018 5:56:29 PM
Method Modifications:
User Delta Stop Changed: 8/31/2017 1:44:06 PM, Old: 450.00, New: 488.00
User Delta Increment Changed: 8/31/2017 1:44:06 PM, Old:  10.00, New:   0.15
Excitation Wavelength Changed: 8/31/2017 1:44:06 PM, Old: 350.00, New: 488.00
Excitation Wavelength Changed: 8/31/2017 2:01:39 PM, Old: 488.00, New: 350.00
Excitation Wavelength Changed: 8/31/2017 2:15:07 PM, Old: 350.00, New: 488.00
Excitation Wavelength Changed: 9/2/2017 6:47:17 PM, Old: 488.00, New: 350.00
Emission Wavelength Changed: 9/2/2017 6:49:15 PM, Old: 400.00, New: 375.00
Instrument mode: Changed: 9/4/2017 3:26:33 PM, Old:Fluorescence, New:Phosphorescence
Ex. Slit Width (nm): Changed: 9/4/2017 3:26:33 PM, Old:5, New:20
Em. Slit Width (nm): Changed: 9/4/2017 3:26:33 PM, Old:5, New:10
Scan Control Changed: 9/4/2017 3:26:33 PM, Old:Medium, New:Manual
Instrument mode: Changed: 9/4/2017 3:27:51 PM, Old:Phosphorescence, New:Fluorescence
Ex. Slit Width (nm): Changed: 9/4/2017 3:27:51 PM, Old:20, New:5
Em. Slit Width (nm): Changed: 9/4/2017 3:27:51 PM, Old:10, New:5
Current Method Changed: 1/25/2018 10:01:26 PM, Old:C:\Users\agilent\Desktop\TPBScan.FMSW, New:C:\USERS\AGILENT\DESKTOP\TPBSCAN.FMSW
Excitation Filter: Changed: 1/25/2018 10:07:38 PM, Old:Auto, New:335 - 620 nm
Scan Control Changed: 1/25/2018 10:07:38 PM, Old:Manual, New:Medium
Excitation Wavelength Changed: 1/25/2018 10:07:38 PM, Old: 350.00, New: 488.00
Emission Wavelength Changed: 1/25/2018 10:07:38 PM, Old: 375.00, New: 500.00
Scan Control Changed: 1/25/2018 10:08:16 PM, Old:Medium, New:Slow
Ave. time (s): Changed: 1/25/2018 10:08:16 PM, Old:0.10000, New:0.50000
Scan Control Changed: 1/25/2018 10:10:15 PM, Old:Slow, New:Fast
Ave. time (s): Changed: 1/25/2018 10:10:15 PM, Old:0.50000, New:0.10000
Data interval: Changed: 1/25/2018 10:10:15 PM, Old:   1.00, New:   2.00
PMT Volts Changed: 1/25/2018 10:11:17 PM, Old:600, New:400
Scan mode: Changed: 1/25/2018 10:11:17 PM, Old:Emission, New:Excitation
Emission PMT (V): Changed: 1/25/2018 10:11:17 PM, Old: 600, New: 400
Excitation Wavelength Changed: 1/25/2018 10:11:17 PM, Old: 488.00, New: 500.00
Emission Wavelength Changed: 1/25/2018 10:11:17 PM, Old: 500.00, New: 488.00
PMT Volts Changed: 1/25/2018 10:12:03 PM, Old:400, New:600
Scan mode: Changed: 1/25/2018 10:12:03 PM, Old:Excitation, New:Emission
Emission PMT (V): Changed: 1/25/2018 10:12:03 PM, Old: 400, New: 600
Excitation Wavelength Changed: 1/25/2018 10:12:03 PM, Old: 500.00, New: 488.00
Emission Wavelength Changed: 1/25/2018 10:12:03 PM, Old: 488.00, New: 500.00
Ex. Slit Width (nm): Changed: 1/25/2018 10:13:02 PM, Old:5, New:1.5
Em. Slit Width (nm): Changed: 1/25/2018 10:13:02 PM, Old:5, New:1.5
Scan Control Changed: 1/25/2018 10:13:02 PM, Old:Fast, New:Slow
Ave. time (s): Changed: 1/25/2018 10:13:02 PM, Old:0.10000, New:0.50000
Data interval: Changed: 1/25/2018 10:13:02 PM, Old:   2.00, New:   1.00
Ex. Slit Width (nm): Changed: 1/25/2018 10:14:01 PM, Old:1.5, New:2.5
Em. Slit Width (nm): Changed: 1/25/2018 10:14:01 PM, Old:1.5, New:2.5
Add Text to graph Changed: 1/25/2018 10:38:26 PM, Old:Choice 0, New:Choice 1
Add Text to graph Changed: 1/25/2018 10:38:26 PM, Old:ON, New:ON
Add Text to graph Changed: 1/25/2018 10:38:26 PM, Old:ON, New:Choice 0
Peak Style Changed: 1/25/2018 10:38:51 PM, Old:Peaks, New:Valleys
Peak Style Changed: 1/25/2018 10:38:51 PM, Old:Valleys, New:Peaks Valleys
Peak Style Changed: 1/25/2018 10:38:51 PM, Old:Peaks Valleys, New:Zero Cross
Peak Style Changed: 1/25/2018 10:38:51 PM, Old:Zero Cross, New:Peaks
Current Method Changed: 3/5/2018 10:34:13 PM, Old:C:\Users\agilent\Documents\FPsi\PhotobleachingTests.FMSW, New:C:\USERS\AGILENT\DOCUMENTS\FPSI\PHOTOBLEACHINGTESTS.FMSW
PMT Volts Changed: 3/5/2018 10:35:05 PM, Old:600, New:800
Em. Slit Width (nm): Changed: 3/5/2018 10:35:05 PM, Old:2.5, New:5
User Delta Stop Changed: 3/5/2018 10:35:05 PM, Old: 488.00, New: 506.00
Emission PMT (V): Changed: 3/5/2018 10:35:05 PM, Old: 600, New: 800
Excitation Wavelength Changed: 3/5/2018 10:35:05 PM, Old: 488.00, New: 506.00
Emission Wavelength Changed: 3/5/2018 10:35:05 PM, Old: 500.00, New: 510.00
Ex. Slit Width (nm): Changed: 3/5/2018 10:36:25 PM, Old:2.5, New:5
Overlayed Graphs Changed: 3/5/2018 10:40:01 PM, Old:OFF, New:ON
End Method Modifications

CG1wkb
Collection Time: 3/12/2018 11:50:10 AM
Operator Name  :
Scan Software Version: 1.2(147)
Parameter List :
Instrument                        Cary Eclipse
Instrument Serial Number          MY17190007
Data mode                         Fluorescence
Scan mode                         Emission
X Mode                            Wavelength (nm)
Start (nm)                        510.00
Stop (nm)                         600.00
Ex. Wavelength (nm)               506.00
Ex. Slit (nm)                     5
Em. Slit (nm)                     5
Scan rate (nm/min)                120.00
Data interval (nm)                1.0000
Averaging Time (s)                0.5000
Excitation filter                 335 - 620 nm
Emission filter                   Open
PMT voltage (V)                   High
Corrected spectra                 OFF
Method Log     :
Method Name    : C:\USERS\AGILENT\DOCUMENTS\FPSI\PHOTOBLEACHINGTESTS.FMSW
Date/Time stamp: 1/26/2018 5:56:29 PM
Method Modifications:
User Delta Stop Changed: 8/31/2017 1:44:06 PM, Old: 450.00, New: 488.00
User Delta Increment Changed: 8/31/2017 1:44:06 PM, Old:  10.00, New:   0.15
Excitation Wavelength Changed: 8/31/2017 1:44:06 PM, Old: 350.00, New: 488.00
Excitation Wavelength Changed: 8/31/2017 2:01:39 PM, Old: 488.00, New: 350.00
Excitation Wavelength Changed: 8/31/2017 2:15:07 PM, Old: 350.00, New: 488.00
Excitation Wavelength Changed: 9/2/2017 6:47:17 PM, Old: 488.00, New: 350.00
Emission Wavelength Changed: 9/2/2017 6:49:15 PM, Old: 400.00, New: 375.00
Instrument mode: Changed: 9/4/2017 3:26:33 PM, Old:Fluorescence, New:Phosphorescence
Ex. Slit Width (nm): Changed: 9/4/2017 3:26:33 PM, Old:5, New:20
Em. Slit Width (nm): Changed: 9/4/2017 3:26:33 PM, Old:5, New:10
Scan Control Changed: 9/4/2017 3:26:33 PM, Old:Medium, New:Manual
Instrument mode: Changed: 9/4/2017 3:27:51 PM, Old:Phosphorescence, New:Fluorescence
Ex. Slit Width (nm): Changed: 9/4/2017 3:27:51 PM, Old:20, New:5
Em. Slit Width (nm): Changed: 9/4/2017 3:27:51 PM, Old:10, New:5
Current Method Changed: 1/25/2018 10:01:26 PM, Old:C:\Users\agilent\Desktop\TPBScan.FMSW, New:C:\USERS\AGILENT\DESKTOP\TPBSCAN.FMSW
Excitation Filter: Changed: 1/25/2018 10:07:38 PM, Old:Auto, New:335 - 620 nm
Scan Control Changed: 1/25/2018 10:07:38 PM, Old:Manual, New:Medium
Excitation Wavelength Changed: 1/25/2018 10:07:38 PM, Old: 350.00, New: 488.00
Emission Wavelength Changed: 1/25/2018 10:07:38 PM, Old: 375.00, New: 500.00
Scan Control Changed: 1/25/2018 10:08:16 PM, Old:Medium, New:Slow
Ave. time (s): Changed: 1/25/2018 10:08:16 PM, Old:0.10000, New:0.50000
Scan Control Changed: 1/25/2018 10:10:15 PM, Old:Slow, New:Fast
Ave. time (s): Changed: 1/25/2018 10:10:15 PM, Old:0.50000, New:0.10000
Data interval: Changed: 1/25/2018 10:10:15 PM, Old:   1.00, New:   2.00
PMT Volts Changed: 1/25/2018 10:11:17 PM, Old:600, New:400
Scan mode: Changed: 1/25/2018 10:11:17 PM, Old:Emission, New:Excitation
Emission PMT (V): Changed: 1/25/2018 10:11:17 PM, Old: 600, New: 400
Excitation Wavelength Changed: 1/25/2018 10:11:17 PM, Old: 488.00, New: 500.00
Emission Wavelength Changed: 1/25/2018 10:11:17 PM, Old: 500.00, New: 488.00
PMT Volts Changed: 1/25/2018 10:12:03 PM, Old:400, New:600
Scan mode: Changed: 1/25/2018 10:12:03 PM, Old:Excitation, New:Emission
Emission PMT (V): Changed: 1/25/2018 10:12:03 PM, Old: 400, New: 600
Excitation Wavelength Changed: 1/25/2018 10:12:03 PM, Old: 500.00, New: 488.00
Emission Wavelength Changed: 1/25/2018 10:12:03 PM, Old: 488.00, New: 500.00
Ex. Slit Width (nm): Changed: 1/25/2018 10:13:02 PM, Old:5, New:1.5
Em. Slit Width (nm): Changed: 1/25/2018 10:13:02 PM, Old:5, New:1.5
Scan Control Changed: 1/25/2018 10:13:02 PM, Old:Fast, New:Slow
Ave. time (s): Changed: 1/25/2018 10:13:02 PM, Old:0.10000, New:0.50000
Data interval: Changed: 1/25/2018 10:13:02 PM, Old:   2.00, New:   1.00
Ex. Slit Width (nm): Changed: 1/25/2018 10:14:01 PM, Old:1.5, New:2.5
Em. Slit Width (nm): Changed: 1/25/2018 10:14:01 PM, Old:1.5, New:2.5
Add Text to graph Changed: 1/25/2018 10:38:26 PM, Old:Choice 0, New:Choice 1
Add Text to graph Changed: 1/25/2018 10:38:26 PM, Old:ON, New:ON
Add Text to graph Changed: 1/25/2018 10:38:26 PM, Old:ON, New:Choice 0
Peak Style Changed: 1/25/2018 10:38:51 PM, Old:Peaks, New:Valleys
Peak Style Changed: 1/25/2018 10:38:51 PM, Old:Valleys, New:Peaks Valleys
Peak Style Changed: 1/25/2018 10:38:51 PM, Old:Peaks Valleys, New:Zero Cross
Peak Style Changed: 1/25/2018 10:38:51 PM, Old:Zero Cross, New:Peaks
Current Method Changed: 3/5/2018 10:34:13 PM, Old:C:\Users\agilent\Documents\FPsi\PhotobleachingTests.FMSW, New:C:\USERS\AGILENT\DOCUMENTS\FPSI\PHOTOBLEACHINGTESTS.FMSW
PMT Volts Changed: 3/5/2018 10:35:05 PM, Old:600, New:800
Em. Slit Width (nm): Changed: 3/5/2018 10:35:05 PM, Old:2.5, New:5
User Delta Stop Changed: 3/5/2018 10:35:05 PM, Old: 488.00, New: 506.00
Emission PMT (V): Changed: 3/5/2018 10:35:05 PM, Old: 600, New: 800
Excitation Wavelength Changed: 3/5/2018 10:35:05 PM, Old: 488.00, New: 506.00
Emission Wavelength Changed: 3/5/2018 10:35:05 PM, Old: 500.00, New: 510.00
Ex. Slit Width (nm): Changed: 3/5/2018 10:36:25 PM, Old:2.5, New:5
Overlayed Graphs Changed: 3/5/2018 10:40:01 PM, Old:OFF, New:ON
End Method Modifications

